Wavelength, Csca, Csca_p, Csca_m, Csca_Qe, Csca_Qm
nm, nm2, nm2, nm2, nm2, nm2
1000, 13677.3, 12614.9, 1139.38, 8.2552, 0.11434
985.222, 14847.7, 13551.1, 1390.7, 9.28728, 0.149159
970.874, 16134.8, 14546.5, 1703.35, 10.4237, 0.164702
956.938, 17557.4, 15604.4, 2094.67, 11.6942, 0.229557
943.396, 19142.1, 16728.3, 2588.92, 13.0866, 0.242378
930.233, 20920.5, 17921.9, 3216.73, 14.641, 0.343699
917.431, 22940.1, 19188.9, 4024.72, 16.3415, 0.364967
904.977, 25259.4, 20533.3, 5072.13, 18.2322, 0.503898
892.857, 27970, 21959.3, 6452.47, 20.3026, 0.558511
881.057, 31192.3, 23471.3, 8291.82, 22.5904, 0.731143
869.565, 35118.8, 25073.8, 10791.8, 25.1028, 0.860482
858.369, 40027.1, 26771.4, 14248.4, 27.8592, 1.06342
847.458, 46368.2, 28568.8, 19142.4, 30.8965, 1.32581
836.82, 54859.2, 30470.5, 26245.5, 34.2067, 1.56991
826.446, 66695.9, 32479.9, 36846, 37.8632, 2.03952
816.327, 83908.6, 34599, 53139.9, 41.8291, 2.37171
806.452, 109833, 36825.4, 78744.2, 46.2118, 3.12718
796.813, 149455, 39149.3, 119080, 50.955, 3.62024
787.402, 206705, 41552.6, 178466, 56.1859, 4.5712
778.21, 272658, 44033.4, 247312, 61.8508, 4.951
769.231, 310725, 46672.5, 285962, 68.0702, 5.17365
760.456, 294116, 49598.4, 265122, 74.8264, 5.17916
751.88, 248322, 52819.8, 212253, 82.1986, 5.26926
743.494, 205099, 56271.3, 161796, 90.2429, 6.48454
735.294, 173746, 59921.5, 123927, 98.9636, 7.24295
727.273, 152950, 63773.2, 97236.1, 108.522, 9.75303
719.424, 139669, 67842.2, 78452.9, 118.828, 11.0821
711.744, 131516, 72148.3, 64952.3, 130.159, 14.953
704.225, 126907, 76712.1, 55028.1, 142.336, 17.2649
696.864, 124819, 81555, 47521.2, 155.735, 22.7406
689.655, 124604, 86698.5, 41737.6, 170.132, 27.1011
682.594, 125833, 92163.7, 37163.7, 185.938, 34.4953
675.676, 128229, 97969.8, 33501.8, 202.97, 42.9006
668.896, 131590, 104132, 30503.8, 221.578, 52.7673
662.252, 135785, 110656, 28027.5, 241.732, 68.6485
655.738, 140678, 117533, 25946.3, 263.595, 82.401
649.351, 146180, 124727, 24181.4, 287.415, 111.534
643.087, 152105, 132154, 22668.1, 313.037, 133.068
636.943, 158305, 139656, 21354.5, 341.073, 185.52
630.915, 164397, 146959, 20210.4, 370.944, 225.403
625, 169992, 153612, 19196.1, 403.62, 320.57
619.195, 174279, 158917, 18300.3, 438.046, 407.765
613.497, 176373, 161873, 17491, 475.41, 590.04
607.903, 174892, 161183, 16766.3, 514.282, 810.424
602.41, 168612, 155439, 16100.4, 555.926, 1209.52
597.015, 156557, 143581, 15494.6, 599.143, 1868.31
591.716, 138962, 125568, 14929.8, 645.552, 3015.04
586.51, 118258, 102896, 14406.2, 695.593, 5647.17
581.395, 98467.9, 78397.3, 13911.8, 751.699, 11130.7
576.369, 90969.5, 55233.9, 13443.1, 818.242, 28635.1
571.429, 92428.6, 35764.2, 12995.4, 895.876, 52019.8
566.572, 64612.3, 21022.4, 12560.6, 973.933, 37295
561.798, 36360.3, 10917.2, 12139.9, 1059.47, 16633.8
557.103, 24310.8, 4735.26, 11721.3, 1163.94, 9872.97
552.486, 17882.1, 1578.9, 11310.3, 1281.56, 5954.3
547.945, 15675.1, 613.903, 10892.1, 1420.58, 4405.36
543.478, 15311.3, 1163.95, 10474.1, 1577.29, 3219.65
539.084, 16433.2, 2719.81, 10041, 1763.55, 2599.06
534.759, 18318.7, 4914.38, 9599.08, 1978.92, 2140.01
530.504, 20702.5, 7490.12, 9134.87, 2238.99, 1779.47
526.316, 23426, 10269.4, 8651.19, 2553.1, 1594.56
522.193, 26249.1, 13132, 8137.9, 2943.01, 1334.69
518.135, 29266.1, 15996.9, 7593.02, 3444.79, 1270.53
514.139, 32272.2, 18811.7, 7010.93, 4098.79, 1064.76
510.204, 35520.5, 21542.7, 6384.95, 5017.03, 1052.41
506.329, 38904.2, 24170.9, 5715.26, 6312.54, 886.566
502.513, 42903.7, 26688.4, 4993.87, 8317.28, 887.462
498.753, 47531.3, 29100.4, 4231.31, 11233.3, 755.745
495.05, 52455, 31426.1, 3431.1, 14594, 744.874
491.4, 52879.8, 33651.5, 2636.2, 13575.3, 656.878
487.805, 48210.3, 35686.8, 1915.68, 7298.56, 650.872
484.262, 45288.6, 37556.3, 1411.74, 2786.56, 615.557
480.769, 45007.5, 39325.3, 1255.55, 1013.44, 581.175
477.327, 46131.2, 41006.3, 1881.85, 488.459, 570.177
473.934, 48482.6, 42594.9, 4170.82, 410.034, 512.137
470.588, 52634.2, 44083.1, 9369.05, 527.985, 528.803
467.29, 59300.5, 45458.4, 18716, 717.243, 457.962
464.037, 68470.9, 46714.9, 31692.2, 956.061, 490.859
460.829, 77933.2, 47870.8, 44432.1, 1217.08, 405.027
457.666, 84847.9, 48967.3, 52306.5, 1493.92, 424.622
454.545, 88282.7, 50023.3, 54481.6, 1793.75, 326.162
451.467, 89307.3, 51026.2, 53002.4, 2097.61, 324.276
448.43, 89093.9, 51940.4, 50031.9, 2435.15, 237.612
445.434, 88376.3, 52721.9, 46717.8, 2772.09, 213.531
442.478, 87430.1, 53312.8, 43594, 3154.73, 155.462
439.56, 86284.8, 53636.4, 40777.3, 3537.5, 113.31
436.681, 84812.9, 53515.5, 38309.6, 3977.46, 120.245
433.839, 82675.8, 52632.3, 36125.5, 4424.54, 123.201
431.034, 79581, 50597.7, 34191.4, 4938.41, 313.793
428.266, 75109.4, 46979.5, 32444.3, 5473.7, 570.492
425.532, 69204.9, 41451.6, 30840.2, 6084.68, 1301.28
422.833, 62119, 34184, 29344.8, 6740.85, 2208.43
420.168, 54994.8, 26226.1, 27906.6, 7479.31, 3491.12
417.537, 48995.9, 19274.1, 26522.9, 8290.32, 3977.29
414.938, 45384.3, 14680.7, 25136.5, 9175.64, 4243.1
412.371, 44186.3, 12705.2, 23777.9, 10134, 3721.36
409.836, 44928.3, 12749.2, 22383.4, 11066.9, 3525.22
407.332, 46473.7, 13997.1, 21019, 11872.3, 2981.98
404.858, 48064.3, 15805.6, 19703.6, 12173.9, 2789.66
402.414, 48938.6, 17765.9, 18710.7, 11704.6, 2448.39
400, 49171.6, 19643.5, 18368.1, 10331.2, 2249.7
